# Pulseq sequence file
# Created by MATLAB mr toolbox

[VERSION]
major 1
minor 4
revision 0

[DEFINITIONS]
AdcRasterTime 1e-07 
BlockDurationRaster 1e-05 
FOV 0.3 0.3 0.02 
GradientRasterTime 1e-05 
Name mebssfp 
RadiofrequencyRasterTime 1e-06 
TotalDuration 0.43225 

# Format of blocks:
# NUM DUR RF  GX  GY  GZ  ADC  EXT
[BLOCKS]
  1 221   1   0   0   1  0  0
  2  31   0   0   0   2  0  0
  3 413   0   0   0   0  0  0
  4 221   2   0   0   3  0  0
  5  31   0   0   4   2  0  0
  6 167   0   0   0   0  0  0
  7  26   0   5   0   0  0  0
  8  92   0   6   0   0  1  0
  9  58   0   0   0   0  0  0
 10  92   0   7   0   0  1  0
 11  58   0   0   0   0  0  0
 12  92   0   6   0   0  1  0
 13  58   0   0   0   0  0  0
 14  92   0   7   0   0  1  0
 15  58   0   0   0   0  0  0
 16  92   0   6   0   0  1  0
 17  26   0   5   0   0  0  0
 18 167   0   0   0   0  0  0
 19 221   3   0   8   3  0  0
 20  31   0   0   9   2  0  0
 21 167   0   0   0   0  0  0
 22  26   0   5   0   0  0  0
 23  92   0   6   0   0  2  0
 24  58   0   0   0   0  0  0
 25  92   0   7   0   0  2  0
 26  58   0   0   0   0  0  0
 27  92   0   6   0   0  2  0
 28  58   0   0   0   0  0  0
 29  92   0   7   0   0  2  0
 30  58   0   0   0   0  0  0
 31  92   0   6   0   0  2  0
 32  26   0   5   0   0  0  0
 33 167   0   0   0   0  0  0
 34 221   2   0  10   3  0  0
 35  31   0   0  11   2  0  0
 36 167   0   0   0   0  0  0
 37  26   0   5   0   0  0  0
 38  92   0   6   0   0  1  0
 39  58   0   0   0   0  0  0
 40  92   0   7   0   0  1  0
 41  58   0   0   0   0  0  0
 42  92   0   6   0   0  1  0
 43  58   0   0   0   0  0  0
 44  92   0   7   0   0  1  0
 45  58   0   0   0   0  0  0
 46  92   0   6   0   0  1  0
 47  26   0   5   0   0  0  0
 48 167   0   0   0   0  0  0
 49 221   3   0  12   3  0  0
 50  31   0   0  13   2  0  0
 51 167   0   0   0   0  0  0
 52  26   0   5   0   0  0  0
 53  92   0   6   0   0  2  0
 54  58   0   0   0   0  0  0
 55  92   0   7   0   0  2  0
 56  58   0   0   0   0  0  0
 57  92   0   6   0   0  2  0
 58  58   0   0   0   0  0  0
 59  92   0   7   0   0  2  0
 60  58   0   0   0   0  0  0
 61  92   0   6   0   0  2  0
 62  26   0   5   0   0  0  0
 63 167   0   0   0   0  0  0
 64 221   2   0  14   3  0  0
 65  31   0   0  15   2  0  0
 66 167   0   0   0   0  0  0
 67  26   0   5   0   0  0  0
 68  92   0   6   0   0  1  0
 69  58   0   0   0   0  0  0
 70  92   0   7   0   0  1  0
 71  58   0   0   0   0  0  0
 72  92   0   6   0   0  1  0
 73  58   0   0   0   0  0  0
 74  92   0   7   0   0  1  0
 75  58   0   0   0   0  0  0
 76  92   0   6   0   0  1  0
 77  26   0   5   0   0  0  0
 78 167   0   0   0   0  0  0
 79 221   3   0  16   3  0  0
 80  31   0   0  17   2  0  0
 81 167   0   0   0   0  0  0
 82  26   0   5   0   0  0  0
 83  92   0   6   0   0  2  0
 84  58   0   0   0   0  0  0
 85  92   0   7   0   0  2  0
 86  58   0   0   0   0  0  0
 87  92   0   6   0   0  2  0
 88  58   0   0   0   0  0  0
 89  92   0   7   0   0  2  0
 90  58   0   0   0   0  0  0
 91  92   0   6   0   0  2  0
 92  26   0   5   0   0  0  0
 93 167   0   0   0   0  0  0
 94 221   2   0  18   3  0  0
 95  31   0   0  19   2  0  0
 96 167   0   0   0   0  0  0
 97  26   0   5   0   0  0  0
 98  92   0   6   0   0  1  0
 99  58   0   0   0   0  0  0
100  92   0   7   0   0  1  0
101  58   0   0   0   0  0  0
102  92   0   6   0   0  1  0
103  58   0   0   0   0  0  0
104  92   0   7   0   0  1  0
105  58   0   0   0   0  0  0
106  92   0   6   0   0  1  0
107  26   0   5   0   0  0  0
108 167   0   0   0   0  0  0
109 221   3   0  20   3  0  0
110  31   0   0  21   2  0  0
111 167   0   0   0   0  0  0
112  26   0   5   0   0  0  0
113  92   0   6   0   0  2  0
114  58   0   0   0   0  0  0
115  92   0   7   0   0  2  0
116  58   0   0   0   0  0  0
117  92   0   6   0   0  2  0
118  58   0   0   0   0  0  0
119  92   0   7   0   0  2  0
120  58   0   0   0   0  0  0
121  92   0   6   0   0  2  0
122  26   0   5   0   0  0  0
123 167   0   0   0   0  0  0
124 221   2   0  22   3  0  0
125  31   0   0  23   2  0  0
126 167   0   0   0   0  0  0
127  26   0   5   0   0  0  0
128  92   0   6   0   0  1  0
129  58   0   0   0   0  0  0
130  92   0   7   0   0  1  0
131  58   0   0   0   0  0  0
132  92   0   6   0   0  1  0
133  58   0   0   0   0  0  0
134  92   0   7   0   0  1  0
135  58   0   0   0   0  0  0
136  92   0   6   0   0  1  0
137  26   0   5   0   0  0  0
138 167   0   0   0   0  0  0
139 221   3   0  24   3  0  0
140  31   0   0  25   2  0  0
141 167   0   0   0   0  0  0
142  26   0   5   0   0  0  0
143  92   0   6   0   0  2  0
144  58   0   0   0   0  0  0
145  92   0   7   0   0  2  0
146  58   0   0   0   0  0  0
147  92   0   6   0   0  2  0
148  58   0   0   0   0  0  0
149  92   0   7   0   0  2  0
150  58   0   0   0   0  0  0
151  92   0   6   0   0  2  0
152  26   0   5   0   0  0  0
153 167   0   0   0   0  0  0
154 221   2   0  26   3  0  0
155  31   0   0  27   2  0  0
156 167   0   0   0   0  0  0
157  26   0   5   0   0  0  0
158  92   0   6   0   0  1  0
159  58   0   0   0   0  0  0
160  92   0   7   0   0  1  0
161  58   0   0   0   0  0  0
162  92   0   6   0   0  1  0
163  58   0   0   0   0  0  0
164  92   0   7   0   0  1  0
165  58   0   0   0   0  0  0
166  92   0   6   0   0  1  0
167  26   0   5   0   0  0  0
168 167   0   0   0   0  0  0
169 221   3   0  28   3  0  0
170  31   0   0  29   2  0  0
171 167   0   0   0   0  0  0
172  26   0   5   0   0  0  0
173  92   0   6   0   0  2  0
174  58   0   0   0   0  0  0
175  92   0   7   0   0  2  0
176  58   0   0   0   0  0  0
177  92   0   6   0   0  2  0
178  58   0   0   0   0  0  0
179  92   0   7   0   0  2  0
180  58   0   0   0   0  0  0
181  92   0   6   0   0  2  0
182  26   0   5   0   0  0  0
183 167   0   0   0   0  0  0
184 221   2   0  30   3  0  0
185  31   0   0  31   2  0  0
186 167   0   0   0   0  0  0
187  26   0   5   0   0  0  0
188  92   0   6   0   0  1  0
189  58   0   0   0   0  0  0
190  92   0   7   0   0  1  0
191  58   0   0   0   0  0  0
192  92   0   6   0   0  1  0
193  58   0   0   0   0  0  0
194  92   0   7   0   0  1  0
195  58   0   0   0   0  0  0
196  92   0   6   0   0  1  0
197  26   0   5   0   0  0  0
198 167   0   0   0   0  0  0
199 221   3   0  32   3  0  0
200  31   0   0  33   2  0  0
201 167   0   0   0   0  0  0
202  26   0   5   0   0  0  0
203  92   0   6   0   0  2  0
204  58   0   0   0   0  0  0
205  92   0   7   0   0  2  0
206  58   0   0   0   0  0  0
207  92   0   6   0   0  2  0
208  58   0   0   0   0  0  0
209  92   0   7   0   0  2  0
210  58   0   0   0   0  0  0
211  92   0   6   0   0  2  0
212  26   0   5   0   0  0  0
213 167   0   0   0   0  0  0
214 221   2   0  34   3  0  0
215  31   0   0  35   2  0  0
216 167   0   0   0   0  0  0
217  26   0   5   0   0  0  0
218  92   0   6   0   0  1  0
219  58   0   0   0   0  0  0
220  92   0   7   0   0  1  0
221  58   0   0   0   0  0  0
222  92   0   6   0   0  1  0
223  58   0   0   0   0  0  0
224  92   0   7   0   0  1  0
225  58   0   0   0   0  0  0
226  92   0   6   0   0  1  0
227  26   0   5   0   0  0  0
228 167   0   0   0   0  0  0
229 221   3   0  36   3  0  0
230  31   0   0  37   2  0  0
231 167   0   0   0   0  0  0
232  26   0   5   0   0  0  0
233  92   0   6   0   0  2  0
234  58   0   0   0   0  0  0
235  92   0   7   0   0  2  0
236  58   0   0   0   0  0  0
237  92   0   6   0   0  2  0
238  58   0   0   0   0  0  0
239  92   0   7   0   0  2  0
240  58   0   0   0   0  0  0
241  92   0   6   0   0  2  0
242  26   0   5   0   0  0  0
243 167   0   0   0   0  0  0
244 221   2   0  38   3  0  0
245  31   0   0  39   2  0  0
246 167   0   0   0   0  0  0
247  26   0   5   0   0  0  0
248  92   0   6   0   0  1  0
249  58   0   0   0   0  0  0
250  92   0   7   0   0  1  0
251  58   0   0   0   0  0  0
252  92   0   6   0   0  1  0
253  58   0   0   0   0  0  0
254  92   0   7   0   0  1  0
255  58   0   0   0   0  0  0
256  92   0   6   0   0  1  0
257  26   0   5   0   0  0  0
258 167   0   0   0   0  0  0
259 221   3   0  40   3  0  0
260  31   0   0  38   2  0  0
261 167   0   0   0   0  0  0
262  26   0   5   0   0  0  0
263  92   0   6   0   0  2  0
264  58   0   0   0   0  0  0
265  92   0   7   0   0  2  0
266  58   0   0   0   0  0  0
267  92   0   6   0   0  2  0
268  58   0   0   0   0  0  0
269  92   0   7   0   0  2  0
270  58   0   0   0   0  0  0
271  92   0   6   0   0  2  0
272  26   0   5   0   0  0  0
273 167   0   0   0   0  0  0
274 221   2   0  37   3  0  0
275  31   0   0  36   2  0  0
276 167   0   0   0   0  0  0
277  26   0   5   0   0  0  0
278  92   0   6   0   0  1  0
279  58   0   0   0   0  0  0
280  92   0   7   0   0  1  0
281  58   0   0   0   0  0  0
282  92   0   6   0   0  1  0
283  58   0   0   0   0  0  0
284  92   0   7   0   0  1  0
285  58   0   0   0   0  0  0
286  92   0   6   0   0  1  0
287  26   0   5   0   0  0  0
288 167   0   0   0   0  0  0
289 221   3   0  35   3  0  0
290  31   0   0  34   2  0  0
291 167   0   0   0   0  0  0
292  26   0   5   0   0  0  0
293  92   0   6   0   0  2  0
294  58   0   0   0   0  0  0
295  92   0   7   0   0  2  0
296  58   0   0   0   0  0  0
297  92   0   6   0   0  2  0
298  58   0   0   0   0  0  0
299  92   0   7   0   0  2  0
300  58   0   0   0   0  0  0
301  92   0   6   0   0  2  0
302  26   0   5   0   0  0  0
303 167   0   0   0   0  0  0
304 221   2   0  33   3  0  0
305  31   0   0  32   2  0  0
306 167   0   0   0   0  0  0
307  26   0   5   0   0  0  0
308  92   0   6   0   0  1  0
309  58   0   0   0   0  0  0
310  92   0   7   0   0  1  0
311  58   0   0   0   0  0  0
312  92   0   6   0   0  1  0
313  58   0   0   0   0  0  0
314  92   0   7   0   0  1  0
315  58   0   0   0   0  0  0
316  92   0   6   0   0  1  0
317  26   0   5   0   0  0  0
318 167   0   0   0   0  0  0
319 221   3   0  31   3  0  0
320  31   0   0  30   2  0  0
321 167   0   0   0   0  0  0
322  26   0   5   0   0  0  0
[RF]
1      31.9669 1 2 0 330 0 0
2      63.9338 1 2 0 330 0 3.14159
3      63.9338 1 2 0 330 0 0

# Format of arbitrary gradients:
#   time_shape_id of 0 means default timing (stepping with grad_raster starting at 1/2 of grad_raster)
# id amplitude amp_shape_id time_shape_id delay
# ..      Hz/m       ..         ..          us
[GRADIENTS]
1     -72580.6 3 4 300
2      -457258 5 6 0
3       457258 7 8 0

# Format of trapezoid gradients:
# id amplitude rise flat fall delay
# ..      Hz/m   us   us   us    us
[TRAP]
 4       333333 100   60 100   0
 5       429792 130    0 130   0
 6      -126984  40  840  40   0
 7       126984  40  840  40   0
 8      -333333 100   60 100   0
 9       294118  90   80  90   0
10      -294118  90   80  90   0
11       259259  80  100  80   0
12      -259259  80  100  80   0
13       228070  70  120  70   0
14      -228070  70  120  70   0
15       200000  60  140  60   0
16      -200000  60  140  60   0
17       183333  60  140  60   0
18      -183333  60  140  60   0
19       158730  50  160  50   0
20      -158730  50  160  50   0
21       142857  50  160  50   0
22      -142857  50  160  50   0
23       121212  40  180  40   0
24      -121212  40  180  40   0
25       101449  30  200  30   0
26      -101449  30  200  30   0
27      86956.5  30  200  30   0
28     -86956.5  30  200  30   0
29      72463.8  30  200  30   0
30     -72463.8  30  200  30   0
31      55555.6  20  220  20   0
32     -55555.6  20  220  20   0
33      41666.7  20  220  20   0
34     -41666.7  20  220  20   0
35      26666.7  10  240  10   0
36     -26666.7  10  240  10   0
37      13333.3  10  240  10   0
38     -13333.3  10  240  10   0
39           -0  10  240  10   0
40            0  10  240  10   0

# Format of ADC events:
# id num dwell delay freq phase
# ..  ..    ns    us   Hz   rad
[ADC]
1 32 26250 40 0 3.14159
2 32 26250 40 0 0

# Sequence Shapes
[SHAPES]

shape_id 1
num_samples 1860
1.49740491e-07
1.34594675e-06
3.73387447e-06
7.30866891e-06
1.20652922e-05
1.7998523e-05
2.51029567e-05
3.33730046e-05
4.28028945e-05
5.33866697e-05
6.51181895e-05
7.79911289e-05
9.1998978e-05
0.000107135043
0.000123392444
0.000140764118
0.000159242815
0.000178821102
0.00019949136
0.000221245784
0.000244076386
0.00026797499
0.000292933236
0.00031894258
0.000345994291
0.000374079453
0.000403188965
0.00043331354
0.000464443708
0.000496569811
0.000529682008
0.000563770272
0.000598824392
0.00063483397
0.000671788427
0.000709676996
0.000748488726
0.000788212484
0.00082883695
0.000870350622
0.000912741814
0.000955998654
0.00100010909
0.00104506089
0.00109084162
0.00113743869
0.00118483931
0.00123303051
0.00128199915
0.0013317319
0.00138221523
0.00143343546
0.00148537871
0.00153803093
0.00159137788
0.00164540515
0.00170009813
0.00175544207
0.00181142201
0.00186802281
0.00192522917
0.0019830256
0.00204139643
0.00210032584
0.0021597978
0.00221979611
0.00228030443
0.00234130619
0.00240278469
0.00246472303
0.00252710416
0.00258991084
0.00265312565
0.00271673103
0.00278070921
0.00284504228
0.00290971215
0.00297470055
0.00303998906
0.00310555908
0.00317139184
0.00323746841
0.0033037697
0.00337027644
0.0034369692
0.00350382839
0.00357083426
0.00363796688
0.00370520617
0.0037725319
0.00383992365
0.00390736087
0.00397482284
0.00404228866
0.00410973732
0.0041771476
0.00424449817
0.00431176751
0.00437893397
0.00444597573
0.00451287083
0.00457959714
0.0046461324
0.00471245419
0.00477853995
0.00484436695
0.00490991233
0.00497515309
0.00504006606
0.00510462795
0.00516881531
0.00523260455
0.00529597195
0.00535889364
0.00542134561
0.00548330372
0.00554474367
0.00560564104
0.00566597128
0.0057257097
0.00578483147
0.00584331163
0.00590112509
0.00595824664
0.00601465091
0.00607031244
0.00612520562
0.00617930472
0.00623258388
0.00628501713
0.00633657836
0.00638724135
0.00643697976
0.00648576712
0.00653357685
0.00658038226
0.00662615653
0.00667087273
0.00671450384
0.00675702269
0.00679840202
0.00683861446
0.00687763253
0.00691542864
0.00695197511
0.00698724413
0.00702120781
0.00705383814
0.00708510702
0.00711498626
0.00714344754
0.00717046249
0.0071960026
0.0072200393
0.00724254391
0.00726348765
0.00728284168
0.00730057705
0.00731666473
0.0073310756
0.00734378045
0.00735475
0.0073639549
0.00737136569
0.00737695284
0.00738068676
0.00738253778
0.00738247613
0.00738047201
0.00737649551
0.00737051667
0.00736250545
0.00735243177
0.00734026546
0.00732597628
0.00730953395
0.00729090812
0.00727006839
0.00724698427
0.00722162525
0.00719396076
0.00716396016
0.00713159277
0.00709682785
0.00705963464
0.00701998229
0.00697783995
0.00693317668
0.00688596155
0.00683616354
0.00678375163
0.00672869473
0.00667096174
0.00661052152
0.00654734289
0.00648139465
0.00641264555
0.00634106434
0.00626661973
0.00618928041
0.00610901504
0.00602579226
0.00593958071
0.00585034898
0.00575806568
0.00566269938
0.00556421864
0.00546259202
0.00535778806
0.00524977531
0.0051385223
0.00502399756
0.0049061696
0.00478500697
0.00466047817
0.00453255176
0.00440119626
0.0042663802
0.00412807215
0.00398624066
0.00384085429
0.00369188164
0.00353929131
0.0033830519
0.00322313205
0.00305950042
0.00289212568
0.00272097653
0.0025460217
0.00236722993
0.00218457002
0.00199801077
0.00180752103
0.00161306968
0.00141462563
0.00121215784
0.00100563529
0.000795027029
0.000580302125
0.000361429703
0.000138378931
8.88809732e-05
0.000320380742
0.000556151056
0.000796222542
0.00104062577
0.00128939126
0.00154254945
0.00180013075
0.00206216549
0.00232868393
0.00259971627
0.00287529264
0.00315544311
0.00344019766
0.00372958622
0.00402363862
0.00432238463
0.00462585393
0.00493407613
0.00524708076
0.00556489724
0.00588755495
0.00621508312
0.00654751096
0.00688486753
0.00722718183
0.00757448276
0.00792679911
0.00828415959
0.00864659279
0.00901412723
0.00938679128
0.00976461325
0.0101476213
0.0105358435
0.0109293079
0.0113280422
0.0117320743
0.0121414317
0.0125561419
0.0129762324
0.0134017303
0.0138326629
0.0142690571
0.0147109398
0.0151583378
0.0156112777
0.016069786
0.0165338891
0.0170036131
0.0174789843
0.0179600285
0.0184467715
0.0189392391
0.0194374567
0.0199414497
0.0204512434
0.0209668629
0.021488333
0.0220156786
0.0225489242
0.0230880945
0.0236332136
0.0241843057
0.0247413948
0.0253045049
0.0258736594
0.026448882
0.0270301959
0.0276176243
0.0282111903
0.0288109167
0.029416826
0.0300289409
0.0306472835
0.0312718759
0.0319027403
0.0325398982
0.0331833713
0.0338331809
0.0344893483
0.0351518945
0.0358208403
0.0364962062
0.0371780129
0.0378662805
0.038561029
0.0392622784
0.0399700482
0.040684358
0.0414052269
0.042132674
0.0428667182
0.0436073781
0.0443546722
0.0451086186
0.0458692353
0.0466365402
0.0474105508
0.0481912846
0.0489787585
0.0497729897
0.0505739947
0.0513817901
0.0521963922
0.053017817
0.0538460803
0.0546811977
0.0555231845
0.056372056
0.057227827
0.0580905121
0.0589601259
0.0598366826
0.060720196
0.0616106799
0.0625081479
0.0634126132
0.0643240887
0.0652425873
0.0661681215
0.0671007036
0.0680403456
0.0689870593
0.0699408562
0.0709017476
0.0718697446
0.0728448579
0.0738270981
0.0748164754
0.075813
0.0768166814
0.0778275294
0.078845553
0.0798707613
0.080903163
0.0819427666
0.0829895803
0.084043612
0.0851048693
0.0861733598
0.0872490905
0.0883320682
0.0894222997
0.0905197911
0.0916245486
0.0927365779
0.0938558846
0.0949824739
0.0961163507
0.0972575197
0.0984059854
0.0995617517
0.100724823
0.101895202
0.103072892
0.104257897
0.105450219
0.106649861
0.107856824
0.109071111
0.110292723
0.111521662
0.112757928
0.114001522
0.115252444
0.116510696
0.117776276
0.119049184
0.120329419
0.121616981
0.122911867
0.124214077
0.125523609
0.12684046
0.128164627
0.129496108
0.1308349
0.132180999
0.133534403
0.134895105
0.136263103
0.137638392
0.139020967
0.140410822
0.141807953
0.143212352
0.144624015
0.146042935
0.147469105
0.148902517
0.150343166
0.151791042
0.153246139
0.154708447
0.156177959
0.157654665
0.159138556
0.160629623
0.162127857
0.163633246
0.16514578
0.166665449
0.168192242
0.169726148
0.171267154
0.172815249
0.17437042
0.175932656
0.177501943
0.179078267
0.180661616
0.182251976
0.183849332
0.18545367
0.187064975
0.188683233
0.190308427
0.191940543
0.193579564
0.195225473
0.196878255
0.198537893
0.200204368
0.201877664
0.203557763
0.205244646
0.206938296
0.208638692
0.210345817
0.212059651
0.213780173
0.215507365
0.217241205
0.218981673
0.220728749
0.222482409
0.224242635
0.226009402
0.22778269
0.229562475
0.231348734
0.233141446
0.234940586
0.23674613
0.238558054
0.240376334
0.242200946
0.244031864
0.245869064
0.247712519
0.249562203
0.251418091
0.253280156
0.255148371
0.25702271
0.258903144
0.260789646
0.262682187
0.264580741
0.266485278
0.268395768
0.270312184
0.272234495
0.274162672
0.276096684
0.278036502
0.279982094
0.281933429
0.283890476
0.285853205
0.287821582
0.289795575
0.291775153
0.293760282
0.295750929
0.297747062
0.299748646
0.301755647
0.303768032
0.305785765
0.307808813
0.30983714
0.31187071
0.313909489
0.31595344
0.318002527
0.320056714
0.322115963
0.324180239
0.326249503
0.328323718
0.330402846
0.33248685
0.33457569
0.336669328
0.338767726
0.340870843
0.342978641
0.34509108
0.347208119
0.34932972
0.35145584
0.353586439
0.355721476
0.357860911
0.3600047
0.362152804
0.364305178
0.366461782
0.368622572
0.370787506
0.37295654
0.375129632
0.377306737
0.379487811
0.381672812
0.383861694
0.386054412
0.388250923
0.39045118
0.392655139
0.394862754
0.397073979
0.399288769
0.401507076
0.403728855
0.405954059
0.408182641
0.410414553
0.412649749
0.41488818
0.417129799
0.419374558
0.421622409
0.423873303
0.42612719
0.428384024
0.430643753
0.432906329
0.435171703
0.437439824
0.439710642
0.441984108
0.44426017
0.446538779
0.448819884
0.451103433
0.453389375
0.455677659
0.457968233
0.460261046
0.462556046
0.46485318
0.467152396
0.469453641
0.471756863
0.474062009
0.476369026
0.478677861
0.480988459
0.483300768
0.485614734
0.487930303
0.49024742
0.492566032
0.494886083
0.49720752
0.499530288
0.501854331
0.504179595
0.506506023
0.508833562
0.511162155
0.513491747
0.515822281
0.518153703
0.520485954
0.522818981
0.525152725
0.52748713
0.529822141
0.532157699
0.534493748
0.53683023
0.53916709
0.541504268
0.543841709
0.546179354
0.548517145
0.550855025
0.553192935
0.555530818
0.557868616
0.56020627
0.562543722
0.564880914
0.567217786
0.569554281
0.571890338
0.574225901
0.576560909
0.578895303
0.581229025
0.583562014
0.585894213
0.588225561
0.590555999
0.592885467
0.595213906
0.597541255
0.599867456
0.602192449
0.604516172
0.606838567
0.609159574
0.611479132
0.613797181
0.61611366
0.618428511
0.620741671
0.623053082
0.625362682
0.627670411
0.629976208
0.632280014
0.634581767
0.636881406
0.639178872
0.641474103
0.643767038
0.646057618
0.648345781
0.650631466
0.652914612
0.65519516
0.657473047
0.659748213
0.662020598
0.66429014
0.666556778
0.668820452
0.6710811
0.673338662
0.675593078
0.677844285
0.680092223
0.682336832
0.684578051
0.686815818
0.689050073
0.691280755
0.693507803
0.695731157
0.697950756
0.70016654
0.702378447
0.704586416
0.706790389
0.708990303
0.711186099
0.713377716
0.715565093
0.71774817
0.719926888
0.722101185
0.724271001
0.726436277
0.728596953
0.730752967
0.732904261
0.735050774
0.737192447
0.73932922
0.741461033
0.743587827
0.745709542
0.747826119
0.749937498
0.75204362
0.754144426
0.756239858
0.758329855
0.760414359
0.762493311
0.764566654
0.766634327
0.768696272
0.770752432
0.772802748
0.774847162
0.776885615
0.77891805
0.780944409
0.782964634
0.784978669
0.786986454
0.788987934
0.79098305
0.792971747
0.794953966
0.796929651
0.798898746
0.800861194
0.802816939
0.804765924
0.806708094
0.808643393
0.810571764
0.812493152
0.814407503
0.81631476
0.818214868
0.820107773
0.821993419
0.823871753
0.82574272
0.827606264
0.829462333
0.831310873
0.833151829
0.834985148
0.836810778
0.838628663
0.840438752
0.842240992
0.84403533
0.845821714
0.847600092
0.84937041
0.851132619
0.852886665
0.854632499
0.856370067
0.85809932
0.859820207
0.861532676
0.863236679
0.864932164
0.866619081
0.868297381
0.869967015
0.871627933
0.873280087
0.874923426
0.876557904
0.87818347
0.879800079
0.88140768
0.883006228
0.884595674
0.886175972
0.887747074
0.889308933
0.890861505
0.892404741
0.893938597
0.895463027
0.896977985
0.898483427
0.899979306
0.90146558
0.902942203
0.904409132
0.905866322
0.90731373
0.908751313
0.910179028
0.911596831
0.913004682
0.914402537
0.915790354
0.917168093
0.918535711
0.919893168
0.921240423
0.922577435
0.923904164
0.925220571
0.926526616
0.927822259
0.929107461
0.930382185
0.931646391
0.932900041
0.934143097
0.935375523
0.936597281
0.937808333
0.939008644
0.940198178
0.941376897
0.942544767
0.943701752
0.944847818
0.945982929
0.947107051
0.94822015
0.949322193
0.950413146
0.951492976
0.952561651
0.953619137
0.954665403
0.955700416
0.956724147
0.957736562
0.958737633
0.959727327
0.960705616
0.961672469
0.962627858
0.963571752
0.964504123
0.965424943
0.966334184
0.967231818
0.968117818
0.968992156
0.969854807
0.970705743
0.971544939
0.972372369
0.973188008
0.973991831
0.974783813
0.975563931
0.97633216
0.977088477
0.977832859
0.978565283
0.979285726
0.979994168
0.980690585
0.981374957
0.982047263
0.982707481
0.983355593
0.983991578
0.984615416
0.985227089
0.985826578
0.986413864
0.986988929
0.987551756
0.988102328
0.988640627
0.989166637
0.989680342
0.990181727
0.990670775
0.991147472
0.991611803
0.992063755
0.992503312
0.992930462
0.993345191
0.993747487
0.994137337
0.994514729
0.994879653
0.995232095
0.995572047
0.995899497
0.996214435
0.996516851
0.996806737
0.997084083
0.997348881
0.997601122
0.9978408
0.998067906
0.998282433
0.998484375
0.998673726
0.99885048
0.999014632
0.999166176
0.999305107
0.999431422
0.999545117
0.999646187
0.999734631
0.999810445
0.999873627
0.999924174
0.999962087
0.999987362
1
1
0.999987362
0.999962087
0.999924174
0.999873627
0.999810445
0.999734631
0.999646187
0.999545117
0.999431422
0.999305107
0.999166176
0.999014632
0.99885048
0.998673726
0.998484375
0.998282433
0.998067906
0.9978408
0.997601122
0.997348881
0.997084083
0.996806737
0.996516851
0.996214435
0.995899497
0.995572047
0.995232095
0.994879653
0.994514729
0.994137337
0.993747487
0.993345191
0.992930462
0.992503312
0.992063755
0.991611803
0.991147472
0.990670775
0.990181727
0.989680342
0.989166637
0.988640627
0.988102328
0.987551756
0.986988929
0.986413864
0.985826578
0.985227089
0.984615416
0.983991578
0.983355593
0.982707481
0.982047263
0.981374957
0.980690585
0.979994168
0.979285726
0.978565283
0.977832859
0.977088477
0.97633216
0.975563931
0.974783813
0.973991831
0.973188008
0.972372369
0.971544939
0.970705743
0.969854807
0.968992156
0.968117818
0.967231818
0.966334184
0.965424943
0.964504123
0.963571752
0.962627858
0.961672469
0.960705616
0.959727327
0.958737633
0.957736562
0.956724147
0.955700416
0.954665403
0.953619137
0.952561651
0.951492976
0.950413146
0.949322193
0.94822015
0.947107051
0.945982929
0.944847818
0.943701752
0.942544767
0.941376897
0.940198178
0.939008644
0.937808333
0.936597281
0.935375523
0.934143097
0.932900041
0.931646391
0.930382185
0.929107461
0.927822259
0.926526616
0.925220571
0.923904164
0.922577435
0.921240423
0.919893168
0.918535711
0.917168093
0.915790354
0.914402537
0.913004682
0.911596831
0.910179028
0.908751313
0.90731373
0.905866322
0.904409132
0.902942203
0.90146558
0.899979306
0.898483427
0.896977985
0.895463027
0.893938597
0.892404741
0.890861505
0.889308933
0.887747074
0.886175972
0.884595674
0.883006228
0.88140768
0.879800079
0.87818347
0.876557904
0.874923426
0.873280087
0.871627933
0.869967015
0.868297381
0.866619081
0.864932164
0.863236679
0.861532676
0.859820207
0.85809932
0.856370067
0.854632499
0.852886665
0.851132619
0.84937041
0.847600092
0.845821714
0.84403533
0.842240992
0.840438752
0.838628663
0.836810778
0.834985148
0.833151829
0.831310873
0.829462333
0.827606264
0.82574272
0.823871753
0.821993419
0.820107773
0.818214868
0.81631476
0.814407503
0.812493152
0.810571764
0.808643393
0.806708094
0.804765924
0.802816939
0.800861194
0.798898746
0.796929651
0.794953966
0.792971747
0.79098305
0.788987934
0.786986454
0.784978669
0.782964634
0.780944409
0.77891805
0.776885615
0.774847162
0.772802748
0.770752432
0.768696272
0.766634327
0.764566654
0.762493311
0.760414359
0.758329855
0.756239858
0.754144426
0.75204362
0.749937498
0.747826119
0.745709542
0.743587827
0.741461033
0.73932922
0.737192447
0.735050774
0.732904261
0.730752967
0.728596953
0.726436277
0.724271001
0.722101185
0.719926888
0.71774817
0.715565093
0.713377716
0.711186099
0.708990303
0.706790389
0.704586416
0.702378447
0.70016654
0.697950756
0.695731157
0.693507803
0.691280755
0.689050073
0.686815818
0.684578051
0.682336832
0.680092223
0.677844285
0.675593078
0.673338662
0.6710811
0.668820452
0.666556778
0.66429014
0.662020598
0.659748213
0.657473047
0.65519516
0.652914612
0.650631466
0.648345781
0.646057618
0.643767038
0.641474103
0.639178872
0.636881406
0.634581767
0.632280014
0.629976208
0.627670411
0.625362682
0.623053082
0.620741671
0.618428511
0.61611366
0.613797181
0.611479132
0.609159574
0.606838567
0.604516172
0.602192449
0.599867456
0.597541255
0.595213906
0.592885467
0.590555999
0.588225561
0.585894213
0.583562014
0.581229025
0.578895303
0.576560909
0.574225901
0.571890338
0.569554281
0.567217786
0.564880914
0.562543722
0.56020627
0.557868616
0.555530818
0.553192935
0.550855025
0.548517145
0.546179354
0.543841709
0.541504268
0.53916709
0.53683023
0.534493748
0.532157699
0.529822141
0.52748713
0.525152725
0.522818981
0.520485954
0.518153703
0.515822281
0.513491747
0.511162155
0.508833562
0.506506023
0.504179595
0.501854331
0.499530288
0.49720752
0.494886083
0.492566032
0.49024742
0.487930303
0.485614734
0.483300768
0.480988459
0.478677861
0.476369026
0.474062009
0.471756863
0.469453641
0.467152396
0.46485318
0.462556046
0.460261046
0.457968233
0.455677659
0.453389375
0.451103433
0.448819884
0.446538779
0.44426017
0.441984108
0.439710642
0.437439824
0.435171703
0.432906329
0.430643753
0.428384024
0.42612719
0.423873303
0.421622409
0.419374558
0.417129799
0.41488818
0.412649749
0.410414553
0.408182641
0.405954059
0.403728855
0.401507076
0.399288769
0.397073979
0.394862754
0.392655139
0.39045118
0.388250923
0.386054412
0.383861694
0.381672812
0.379487811
0.377306737
0.375129632
0.37295654
0.370787506
0.368622572
0.366461782
0.364305178
0.362152804
0.3600047
0.357860911
0.355721476
0.353586439
0.35145584
0.34932972
0.347208119
0.34509108
0.342978641
0.340870843
0.338767726
0.336669328
0.33457569
0.33248685
0.330402846
0.328323718
0.326249503
0.324180239
0.322115963
0.320056714
0.318002527
0.31595344
0.313909489
0.31187071
0.30983714
0.307808813
0.305785765
0.303768032
0.301755647
0.299748646
0.297747062
0.295750929
0.293760282
0.291775153
0.289795575
0.287821582
0.285853205
0.283890476
0.281933429
0.279982094
0.278036502
0.276096684
0.274162672
0.272234495
0.270312184
0.268395768
0.266485278
0.264580741
0.262682187
0.260789646
0.258903144
0.25702271
0.255148371
0.253280156
0.251418091
0.249562203
0.247712519
0.245869064
0.244031864
0.242200946
0.240376334
0.238558054
0.23674613
0.234940586
0.233141446
0.231348734
0.229562475
0.22778269
0.226009402
0.224242635
0.222482409
0.220728749
0.218981673
0.217241205
0.215507365
0.213780173
0.212059651
0.210345817
0.208638692
0.206938296
0.205244646
0.203557763
0.201877664
0.200204368
0.198537893
0.196878255
0.195225473
0.193579564
0.191940543
0.190308427
0.188683233
0.187064975
0.18545367
0.183849332
0.182251976
0.180661616
0.179078267
0.177501943
0.175932656
0.17437042
0.172815249
0.171267154
0.169726148
0.168192242
0.166665449
0.16514578
0.163633246
0.162127857
0.160629623
0.159138556
0.157654665
0.156177959
0.154708447
0.153246139
0.151791042
0.150343166
0.148902517
0.147469105
0.146042935
0.144624015
0.143212352
0.141807953
0.140410822
0.139020967
0.137638392
0.136263103
0.134895105
0.133534403
0.132180999
0.1308349
0.129496108
0.128164627
0.12684046
0.125523609
0.124214077
0.122911867
0.121616981
0.120329419
0.119049184
0.117776276
0.116510696
0.115252444
0.114001522
0.112757928
0.111521662
0.110292723
0.109071111
0.107856824
